# energy grid [eV]     epsi_x  epsi_y  epsi_z
#
    0.001000000    0.000186275    0.000186259    0.000028440
    0.021038076    0.003919410    0.003919070    0.000598338
    0.041076152    0.007655468    0.007654805    0.001168360
    0.061114228    0.011397241    0.011396254    0.001738625
    0.081152305    0.015147535    0.015146223    0.002309250
    0.101190381    0.018909176    0.018907538    0.002880355
    0.121228457    0.022685017    0.022683051    0.003452059
    0.141266533    0.026477947    0.026475651    0.004024480
    0.161304609    0.030290894    0.030288268    0.004597739
    0.181342685    0.034126840    0.034123880    0.005171956
    0.201380762    0.037988820    0.037985524    0.005747253
    0.221418838    0.041879935    0.041876300    0.006323751
    0.241456914    0.045803361    0.045799384    0.006901573
    0.261494990    0.049762355    0.049758033    0.007480843
    0.281533066    0.053760267    0.053755595    0.008061685
    0.301571142    0.057800547    0.057795522    0.008644225
    0.321609218    0.061886759    0.061881376    0.009228589
    0.341647295    0.066022588    0.066016842    0.009814907
    0.361685371    0.070211857    0.070205743    0.010403307
    0.381723447    0.074458534    0.074452047    0.010993921
    0.401761523    0.078766751    0.078759885    0.011586881
    0.421799599    0.083140815    0.083133563    0.012182321
    0.441837675    0.087585226    0.087577581    0.012780378
    0.461875752    0.092104693    0.092096649    0.013381190
    0.481913828    0.096704154    0.096695702    0.013984896
    0.501951904    0.101388796    0.101379929    0.014591638
    0.521989980    0.106164077    0.106154785    0.015201562
    0.542028056    0.111035749    0.111026024    0.015814813
    0.562066132    0.116009889    0.115999721    0.016431541
    0.582104208    0.121092923    0.121082302    0.017051897
    0.602142285    0.126291662    0.126280577    0.017676037
    0.622180361    0.131613336    0.131601776    0.018304118
    0.642218437    0.137065635    0.137053587    0.018936300
    0.662256513    0.142656749    0.142644202    0.019572747
    0.682294589    0.148395421    0.148382360    0.020213626
    0.702332665    0.154290999    0.154277410    0.020859108
    0.722370741    0.160353494    0.160339362    0.021509367
    0.742408818    0.166593650    0.166578959    0.022164581
    0.762446894    0.173023020    0.173007754    0.022824934
    0.782484970    0.179654049    0.179638189    0.023490611
    0.802523046    0.186500169    0.186483697    0.024161803
    0.822561122    0.193575910    0.193558806    0.024838707
    0.842599198    0.200897019    0.200879262    0.025521523
    0.862637275    0.208480601    0.208462169    0.026210457
    0.882675351    0.216345277    0.216326146    0.026905719
    0.902713427    0.224511363    0.224491508    0.027607528
    0.922751503    0.233001080    0.232980475    0.028316106
    0.942789579    0.241838790    0.241817406    0.029031682
    0.962827655    0.251051271    0.251029080    0.029754491
    0.982865731    0.260668036    0.260645005    0.030484777
    1.002903808    0.270721701    0.270697798    0.031222788
    1.022941884    0.281248417    0.281223605    0.031968782
    1.042979960    0.292288371    0.292262613    0.032723024
    1.063018036    0.303886379    0.303859634    0.033485787
    1.083056112    0.316092581    0.316064806    0.034257354
    1.103094188    0.328963270    0.328934419    0.035038015
    1.123132265    0.342561869    0.342531894    0.035828071
    1.143170341    0.356960110    0.356928957    0.036627834
    1.163208417    0.372239430    0.372207044    0.037437625
    1.183246493    0.388492677    0.388458996    0.038257776
    1.203284569    0.405826153    0.405791114    0.039088632
    1.223322645    0.424362117    0.424325649    0.039930550
    1.243360721    0.444241831    0.444203858    0.040783900
    1.263398798    0.465629306    0.465589749    0.041649065
    1.283436874    0.488715921    0.488674690    0.042526444
    1.303474950    0.513726131    0.513683132    0.043416450
    1.323513026    0.540924564    0.540879691    0.044319513
    1.343551102    0.570624836    0.570577977    0.045236079
    1.363589178    0.603200536    0.603151567    0.046166614
    1.383627255    0.639098853    0.639047637    0.047111601
    1.403665331    0.678857407    0.678803793    0.048071545
    1.423703407    0.723124757    0.723068580    0.049046971
    1.443741483    0.772684837    0.772625912    0.050038427
    1.463779559    0.828484829    0.828422949    0.051046486
    1.483817635    0.891664383    0.891599317    0.052071745
    1.503855711    0.963580777    0.963512266    0.053114831
    1.523893788    1.045818252    1.045746002    0.054176396
    1.543931864    1.140158635    1.140082317    0.055257127
    1.563969940    1.248473388    1.248392629    0.056357741
    1.584008016    1.372477298    1.372391685    0.057478991
    1.604046092    1.513277210    1.513186290    0.058621667
    1.624084168    1.670695094    1.670598381    0.059786600
    1.644122244    1.842497626    1.842394625    0.060974662
    1.664160321    2.023911982    2.023802214    0.062186773
    1.684198397    2.207938774    2.207821806    0.063423901
    1.704236473    2.386677623    2.386553077    0.064687067
    1.724274549    2.553240141    2.553107659    0.065977348
    1.744312625    2.703360771    2.703219947    0.067295884
    1.764350701    2.835789174    2.835639544    0.068643880
    1.784388778    2.951151060    2.950992224    0.070022612
    1.804426854    3.050360721    3.050192443    0.071433434
    1.824464930    3.134359796    3.134181886    0.072877780
    1.844503006    3.205292211    3.205104224    0.074357180
    1.864541082    3.267147406    3.266948481    0.075873258
    1.884579158    3.324381374    3.324170419    0.077427746
    1.904617234    3.379412166    3.379188227    0.079022495
    1.924655311    3.431489305    3.431251692    0.080659481
    1.944693387    3.478447505    3.478195558    0.082340821
    1.964731463    3.519840283    3.519573124    0.084068784
    1.984769539    3.558358416    3.558074978    0.085845810
    2.004807615    3.598426507    3.598125655    0.087674524
    2.024845691    3.643599738    3.643280169    0.089557757
    2.044883768    3.694773193    3.694433091    0.091498567
    2.064921844    3.750211648    3.749848353    0.093500267
    2.084959920    3.807319109    3.806929227    0.095566452
    2.104997996    3.864853693    3.864433775    0.097701034
    2.125036072    3.923884693    3.923431941    0.099908280
    2.145074148    3.987098730    3.986610926    0.102192855
    2.165112224    4.057621442    4.057095910    0.104559880
    2.185150301    4.138284179    4.137716486    0.107014986
    2.205188377    4.231042506    4.230425857    0.109564391
    2.225226453    4.336340950    4.335666583    0.112214983
    2.245264529    4.453172392    4.452430535    0.114974423
    2.265302605    4.580343107    4.579523723    0.117851261
    2.285340681    4.718305612    4.717398270    0.120855087
    2.305378758    4.870359111    4.869351957    0.123996698
    2.325416834    5.042343194    5.041221671    0.127288315
    2.345454910    5.240879015    5.239624877    0.130743830
    2.365492986    5.471349401    5.469939993    0.134379120
    2.385531062    5.737174583    5.735582146    0.138212413
    2.405569138    6.040869083    6.039060113    0.142264729
    2.425607214    6.385861444    6.383796217    0.146560392
    2.445645291    6.777534286    6.775166388    0.151127599
    2.465683367    7.222461723    7.219737771    0.155999005
    2.485721443    7.725736819    7.722597546    0.161212195
    2.505759519    8.286987244    8.283372077    0.166809835
    2.525797595    8.896229520    8.892087130    0.172839047
    2.545835671    9.531877341    9.527183146    0.179349318
    2.565873747   10.163969119   10.158746091    0.186388048
    2.585911824   10.763154070   10.757486749    0.193993115
    2.605949900   11.310782194   11.304812975    0.202183442
    2.625987976   11.803366643   11.797273237    0.210952118
    2.646026052   12.249074651   12.243039872    0.220270440
    2.666064128   12.660047720   12.654234604    0.230109707
    2.686102204   13.046041768   13.040579509    0.240476021
    2.706140281   13.411852389   13.406832145    0.251440134
    2.726178357   13.757175968   13.752654209    0.263146194
    2.746216433   14.076557226   14.072564958    0.275800316
    2.766254509   14.358985965   14.355542972    0.289652774
    2.786292585   14.588369896   14.585502145    0.304985576
    2.806330661   14.745614020   14.743369259    0.322107052
    2.826368737   14.811694076   14.810150517    0.341346877
    2.846406814   14.770657016   14.769921256    0.363042051
    2.866444890   14.611982867   14.612170771    0.387504947
    2.886482966   14.332607938   14.333805139    0.414966673
    2.906521042   13.938984848   13.941201364    0.445498064
    2.926559118   13.448008587   13.451157033    0.478934698
    2.946597194   12.884968706   12.888880877    0.514859546
    2.966635271   12.278892377   12.283358725    0.552687864
    2.986673347   11.657746289   11.662553864    0.591830705
    3.006711423   11.045314110   11.050273496    0.631833667
    3.026749499   10.459742220   10.464706036    0.672392038
    3.046787575    9.913177375    9.918049485    0.713257655
    3.066825651    9.412439545    9.417170497    0.754150634
    3.086863727    8.960597818    8.965169760    0.794740640
    3.106901804    8.558749699    8.563159152    0.834671767
    3.126939880    8.207394734    8.211636659    0.873625539
    3.146977956    7.907213058    7.911267547    0.911444999
    3.167016032    7.659038794    7.662865935    0.948255185
    3.187054108    7.462778220    7.466324643    0.984441617
    3.207092184    7.315635887    7.318848128    1.020447648
    3.227130261    7.210975850    7.213811662    1.056546720
    3.247168337    7.139313597    7.141746087    1.092806864
    3.267206413    7.091473327    7.093489958    1.129271757
    3.287244489    7.061940727    7.063542724    1.166129739
    3.307282565    7.050007877    7.051213681    1.203657885
    3.327320641    7.057916729    7.058769861    1.241989236
    3.347358717    7.087375541    7.087954487    1.280927060
    3.367396794    7.136822012    7.137246439    1.319974724
    3.387434870    7.201049078    7.201473754    1.358568190
    3.407472946    7.273003913    7.273595432    1.396336917
    3.427511022    7.346206305    7.347110118    1.433179904
    3.447549098    7.416292512    7.417606469    1.469087392
    3.467587174    7.481050011    7.482814935    1.503908171
    3.487625251    7.539145378    7.541349975    1.537336620
    3.507663327    7.588625596    7.591216150    1.569111756
    3.527701403    7.626551233    7.629439487    1.599174000
    3.547739479    7.650020757    7.653089327    1.627612886
    3.567777555    7.657422594    7.660532783    1.654446681
    3.587815631    7.648608157    7.651617388    1.679388201
    3.607853707    7.623966050    7.626754653    1.701772060
    3.627891784    7.583752040    7.586246456    1.720716029
    3.647929860    7.528834513    7.531012729    1.735388736
    3.667967936    7.462111050    7.463989369    1.745190682
    3.688006012    7.388585594    7.390199058    1.749811199
    3.708044088    7.313536497    7.314925845    1.749270037
    3.728082164    7.240443433    7.241650055    1.744011792
    3.748120240    7.170353920    7.171415346    1.734973028
    3.768158317    7.102719172    7.103661826    1.723471743
    3.788196393    7.036591924    7.037426474    1.710849972
    3.808234469    6.971244412    6.971968720    1.697993381
    3.828272545    6.906246747    6.906853718    1.685053238
    3.848310621    6.841656557    6.842140567    1.671670526
    3.868348697    6.778509192    6.778868702    1.657625757
    3.888386774    6.719000970    6.719238972    1.643402914
    3.908424850    6.665715088    6.665838529    1.630153325
    3.928462926    6.620112170    6.620129633    1.619079027
    3.948501002    6.581547520    6.581464898    1.610762872
    3.968539078    6.548134467    6.547950383    1.604959806
    3.988577154    6.519272065    6.518975993    1.600993938
    4.008615230    6.497805803    6.497380684    1.598483620
    4.028653307    6.489649295    6.489077624    1.597837994
    4.048691383    6.500652300    6.499923282    1.600118618
    4.068729459    6.532745712    6.531860704    1.606415517
    4.088767535    6.581978618    6.580950687    1.617287180
    4.108805611    6.639839392    6.638685489    1.632671893
    4.128843687    6.697184482    6.695916712    1.652236731
    4.148881764    6.748275707    6.746900228    1.675853408
    4.168919840    6.792378853    6.790901883    1.703924999
    4.188957916    6.832355557    6.830788721    1.737412351
    4.208995992    6.871686103    6.870047119    1.777522959
    4.229034068    6.911911925    6.910223209    1.825243503
    4.249072144    6.951798534    6.950086040    1.881067535
    4.269110220    6.988188913    6.986479289    1.945132485
    4.289148297    7.017379920    7.015694911    2.017649917
    4.309186373    7.035829081    7.034181082    2.099290938
    4.329224449    7.040000067    7.038391572    2.191247783
    4.349262525    7.026151556    7.024576516    2.294973136
    4.369300601    6.991003142    6.989450654    2.411821769
    4.389338677    6.933358917    6.931821885    2.542799249
    4.409376754    6.855656157    6.854139265    2.688449901
    4.429414830    6.764039156    6.762555689    2.848760024
    4.449452906    6.666434168    6.664992320    3.022915575
    4.469490982    6.569696997    6.568289426    3.208867780
    4.489529058    6.477635569    6.476242869    3.402921575
    4.509567134    6.390859512    6.389463387    3.599816759
    4.529605210    6.308049627    6.306642723    3.793600918
    4.549643287    6.227493258    6.226077442    3.978909302
    4.569681363    6.147998746    6.146574861    4.151835583
    4.589719439    6.069199500    6.067758405    4.309997978
    4.609757515    5.991750898    5.990273848    4.452162612
    4.629795591    5.917548667    5.916017288    4.578089535
    4.649833667    5.849519306    5.847927865    4.688921415
    4.669871743    5.790539380    5.788899917    4.787712359
    4.689909820    5.741681151    5.740017358    4.879297836
    4.709947896    5.700839932    5.699174510    4.969255260
    4.729985972    5.663154496    5.661498179    5.062580443
    4.750024048    5.623632233    5.621979247    5.162844160
    4.770062124    5.580353091    5.578683792    5.272074421
    4.790100200    5.535691852    5.533980731    5.391118386
    4.810138277    5.494658076    5.492884195    5.520139514
    4.830176353    5.461957736    5.460114061    5.659119595
    4.850214429    5.439889224    5.437986012    5.808332902
    4.870252505    5.427747665    5.425807247    5.968568667
    4.890290581    5.422347449    5.420393915    6.140786480
    4.910328657    5.419354701    5.417404602    6.325289134
    4.930366733    5.415121043    5.413177874    6.520951814
    4.950404810    5.408232886    5.406285199    6.724837978
    4.970442886    5.399920050    5.397944341    6.932184578
    4.990480962    5.393100200    5.391070477    7.136790132
    5.010519038    5.390570869    5.388471897    7.331794373
    5.030557114    5.393210077    5.391045357    7.510808523
    5.050595190    5.399064764    5.396853823    7.669479490
    5.070633267    5.403881713    5.401651939    7.807108789
    5.090671343    5.402776826    5.400557370    7.927260303
    5.110709419    5.391892913    5.389710106    8.036783029
    5.130747495    5.368983100    5.366854373    8.144029800
    5.150785571    5.332856908    5.330786910    8.257451130
    5.170823647    5.282564290    5.280548342    8.384855208
    5.190861723    5.217104014    5.215137127    8.532915971
    5.210899800    5.135657797    5.133743111    8.706619676
    5.230937876    5.038167896    5.036319493    8.908515172
    5.250975952    4.926302500    4.924540009    9.137732337
    5.271014028    4.804369596    4.802706077    9.389258498
    5.291052104    4.679272796    4.677703185    9.654287762
    5.311090180    4.559209167    4.557708080    9.921619682
    5.331128257    4.451651767    4.450183105   10.178920314
    5.351166333    4.361372255    4.359904346   10.412984682
    5.371204409    4.289275642    4.287793263   10.609866752
    5.391242485    4.232761585    4.231269820   10.756519495
    5.411280561    4.187573028    4.186091451   10.844135980
    5.431318637    4.150066465    4.148615326   10.871280221
    5.451356713    4.118702507    4.117289008   10.844348616
    5.471394790    4.094243479    4.092859683   10.774560248
    5.491432866    4.078784556    4.077419570   10.673106205
    5.511470942    4.074144783    4.072799783   10.547175962
    5.531509018    4.080454611    4.079146780   10.398741898
    5.551547094    4.095725107    4.094477547   10.226240539
    5.571585170    4.116660287    4.115487654   10.027785895
    5.591623246    4.140264679    4.139167093    9.803887456
    5.611661323    4.165189207    4.164157675    9.558229810
    5.631699399    4.191782599    4.190807763    9.296537777
    5.651737475    4.220810535    4.219885366    9.024701478
    5.671775551    4.251889075    4.251004918    8.747617112
    5.691813627    4.282699983    4.281843321    8.469438776
    5.711851703    4.309329368    4.308485009    8.194428727
    5.731889780    4.327524942    4.326682660    7.926945092
    5.751927856    4.334350831    4.333508464    7.670221189
    5.771965932    4.329489555    4.328650414    7.425102182
    5.792004008    4.315535331    4.314704010    7.190035876
    5.812042084    4.297087919    4.296268942    6.962392803
    5.832080160    4.279054716    4.278254731    6.740109415
    5.852118236    4.265002499    4.264233712    6.522705935
    5.872156313    4.256330322    4.255612272    6.311461248
    5.892194389    4.252449628    4.251808316    6.108943375
    5.912232465    4.251548957    4.251014718    5.918097631
    5.932270541    4.251334491    4.250939630    5.741176490
    5.952308617    4.249452158    4.249226780    5.578882795
    5.972346693    4.243770058    4.243734407    5.429972482
    5.992384770    4.232803905    4.232959884    5.291478733
    6.012422846    4.216231360    4.216559607    5.159691610
    6.032460922    4.195090831    4.195556784    5.031695690
    6.052498998    4.171315789    4.171880677    4.906681878
    6.072537074    4.146851457    4.147480694    4.786057251
    6.092575150    4.123135821    4.123801207    4.672164887
    6.112613226    4.101318137    4.101996067    4.566598201
    6.132651303    4.082648751    4.083318293    4.469264252
    6.152689379    4.068282982    4.068926027    4.378505184
    6.172727455    4.058489276    4.059092817    4.291907439
    6.192765531    4.051907649    4.052466268    4.207252479
    6.212803607    4.045355300    4.045871439    4.123101709
    6.232841683    4.034163934    4.034645525    4.038830847
    6.252879760    4.012913073    4.013370476    3.954361552
    6.272917836    3.976592469    3.977036478    3.869966144
    6.292955912    3.922041973    3.922482804    3.786339694
    6.312993988    3.849011502    3.849457907    3.704763573
    6.333032064    3.760134716    3.760593219    3.626888774
    6.353070140    3.659829838    3.660304599    3.553935408
    6.373108216    3.552860356    3.553353503    3.485824691
    6.393146293    3.443303724    3.443815609    3.421022023
    6.413184369    3.334232111    3.334761747    3.357322798
    6.433222445    3.227959819    3.228506045    3.293152839
    6.453260521    3.126428795    3.126991516    3.228657625
    6.473298597    3.031317878    3.031898003    3.165918146
    6.493336673    2.943822551    2.944420841    3.108198417
    6.513374749    2.864480587    2.865097264    3.058835002
    6.533412826    2.793400268    2.794036077    3.020372270
