# energy grid [eV]     epsi_x  epsi_y  epsi_z
#
    0.001000000    0.000186261    0.000186261    0.000028442
    0.021038076    0.003919103    0.003919105    0.000598390
    0.041076152    0.007654869    0.007654871    0.001168462
    0.061114228    0.011396349    0.011396352    0.001738777
    0.081152305    0.015146348    0.015146353    0.002309452
    0.101190381    0.018907693    0.018907699    0.002880607
    0.121228457    0.022683235    0.022683242    0.003452360
    0.141266533    0.026475864    0.026475872    0.004024831
    0.161304609    0.030288507    0.030288517    0.004598141
    0.181342685    0.034124145    0.034124155    0.005172408
    0.201380762    0.037985813    0.037985824    0.005747756
    0.221418838    0.041876612    0.041876624    0.006324304
    0.241456914    0.045799716    0.045799730    0.006902177
    0.261494990    0.049758383    0.049758398    0.007481497
    0.281533066    0.053755961    0.053755978    0.008062390
    0.301571142    0.057795901    0.057795919    0.008644982
    0.321609218    0.061881765    0.061881784    0.009229398
    0.341647295    0.066017239    0.066017259    0.009815767
    0.361685371    0.070206144    0.070206165    0.010404219
    0.381723447    0.074452447    0.074452470    0.010994886
    0.401761523    0.078760280    0.078760304    0.011587898
    0.421799599    0.083133949    0.083133974    0.012183392
    0.441837675    0.087577952    0.087577979    0.012781502
    0.461875752    0.092096999    0.092097027    0.013382367
    0.481913828    0.096696026    0.096696056    0.013986127
    0.501951904    0.101380219    0.101380250    0.014592924
    0.521989980    0.106155034    0.106155067    0.015202903
    0.542028056    0.111026224    0.111026258    0.015816209
    0.562066132    0.115999862    0.115999898    0.016432993
    0.582104208    0.121082375    0.121082412    0.017053406
    0.602142285    0.126280571    0.126280609    0.017677602
    0.622180361    0.131601678    0.131601718    0.018305740
    0.642218437    0.137053385    0.137053426    0.018937980
    0.662256513    0.142643880    0.142643923    0.019574485
    0.682294589    0.148381903    0.148381948    0.020215423
    0.702332665    0.154276800    0.154276847    0.020860964
    0.722370741    0.160338579    0.160338627    0.021511284
    0.742408818    0.166577982    0.166578032    0.022166559
    0.762446894    0.173006558    0.173006610    0.022826973
    0.782484970    0.179636748    0.179636803    0.023492712
    0.802523046    0.186481982    0.186482038    0.024163967
    0.822561122    0.193556783    0.193556842    0.024840935
    0.842599198    0.200876896    0.200876957    0.025523815
    0.862637275    0.208459418    0.208459482    0.026212814
    0.882675351    0.216322965    0.216323031    0.026908143
    0.902713427    0.224487847    0.224487915    0.027610019
    0.922751503    0.232976276    0.232976347    0.028318664
    0.942789579    0.241812607    0.241812680    0.029034309
    0.962827655    0.251023606    0.251023682    0.029757188
    0.982865731    0.260638778    0.260638857    0.030487544
    1.002903808    0.270690725    0.270690806    0.031225627
    1.022941884    0.281215583    0.281215667    0.031971694
    1.042979960    0.292253523    0.292253611    0.032726010
    1.063018036    0.303849342    0.303849433    0.033488849
    1.083056112    0.316053159    0.316053254    0.034260491
    1.103094188    0.328921242    0.328921340    0.035041230
    1.123132265    0.342516986    0.342517088    0.035831366
    1.143170341    0.356912085    0.356912191    0.036631208
    1.163208417    0.372187940    0.372188050    0.037441081
    1.183246493    0.388437350    0.388437464    0.038261315
    1.203284569    0.405766562    0.405766681    0.039092255
    1.223322645    0.424297767    0.424297891    0.039934259
    1.243360721    0.444172150    0.444172279    0.040787696
    1.263398798    0.465553626    0.465553760    0.041652951
    1.283436874    0.488633459    0.488633599    0.042530421
    1.303474950    0.513635966    0.513636111    0.043420520
    1.323513026    0.540825603    0.540825755    0.044323677
    1.343551102    0.570515782    0.570515941    0.045240340
    1.363589178    0.603079835    0.603080002    0.046170973
    1.383627255    0.638964642    0.638964816    0.047116061
    1.403665331    0.678707436    0.678707618    0.048076107
    1.423703407    0.722956308    0.722956499    0.049051638
    1.443741483    0.772494621    0.772494822    0.050043201
    1.463779559    0.828268872    0.828269083    0.051051369
    1.483817635    0.891417918    0.891418140    0.052076740
    1.503855711    0.963298165    0.963298400    0.053119940
    1.523893788    1.045492999    1.045493248    0.054181623
    1.543931864    1.139783619    1.139783883    0.055262474
    1.563969940    1.248041487    1.248041768    0.056363210
    1.584008016    1.371982681    1.371982981    0.057484586
    1.604046092    1.512717510    1.512717829    0.058627390
    1.624084168    1.670074331    1.670074673    0.059792455
    1.644122244    1.841828952    1.841829318    0.060980653
    1.664160321    2.023218357    2.023218749    0.062192903
    1.684198397    2.207249858    2.207250277    0.063430173
    1.704236473    2.386023215    2.386023661    0.064693485
    1.724274549    2.552642879    2.552643353    0.065983917
    1.744312625    2.702831725    2.702832226    0.067302608
    1.764350701    2.835329124    2.835329655    0.068650763
    1.784388778    2.950756565    2.950757125    0.070029658
    1.804426854    3.050028757    3.050029344    0.071440647
    1.824464930    3.134086013    3.134086627    0.072885167
    1.844503006    3.205066447    3.205067088    0.074364744
    1.864541082    3.266954148    3.266954818    0.075881006
    1.884579158    3.324206899    3.324207604    0.077435683
    1.904617234    3.379252047    3.379252789    0.079030627
    1.924655311    3.431348173    3.431348953    0.080667814
    1.944693387    3.478330368    3.478331186    0.082349361
    1.964731463    3.519744082    3.519744942    0.084077538
    1.984769539    3.558271869    3.558272772    0.085854785
    2.004807615    3.598336755    3.598337705    0.087683728
    2.024845691    3.643499141    3.643500140    0.089567196
    2.044883768    3.694661829    3.694662881    0.091508251
    2.064921844    3.750094561    3.750095676    0.093510203
    2.084959920    3.807200603    3.807201796    0.095576649
    2.104997996    3.864733345    3.864734629    0.097711501
    2.125036072    3.923757841    3.923759223    0.099919026
    2.145074148    3.986959269    3.986960744    0.102203890
    2.165112224    4.057463376    4.057464945    0.104571213
    2.185150301    4.138101994    4.138103664    0.107026628
    2.205188377    4.230832374    4.230834171    0.109576352
    2.225226453    4.336102078    4.336104035    0.112227274
    2.245264529    4.452906128    4.452908279    0.114987053
    2.265302605    4.580049871    4.580052244    0.117864241
    2.285340681    4.717982094    4.717984708    0.120868426
    2.305378758    4.869997829    4.870000707    0.124010406
    2.325416834    5.041934513    5.041937689    0.127302397
    2.345454910    5.240413870    5.240417396    0.130758293
    2.365492986    5.470820360    5.470824302    0.134393967
    2.385531062    5.736574475    5.736578922    0.138227644
    2.405569138    6.040188852    6.040193907    0.142280340
    2.425607214    6.385089140    6.385094923    0.146576372
    2.445645291    6.776655413    6.776662050    0.151143935
    2.465683367    7.221460077    7.221467702    0.156015673
    2.485721443    7.724595313    7.724604073    0.161229172
    2.505759519    8.285689313    8.285699356    0.166827101
    2.525797595    8.894762362    8.894773808    0.172856595
    2.545835671    9.530237803    9.530250691    0.179367182
    2.565873747   10.162171648   10.162185876    0.186406340
    2.585911824   10.761237463   10.761252758    0.194012076
    2.605949900   11.308809785   11.308825731    0.202203492
    2.625987976   11.801416985   11.801433092    0.210973868
    2.646026052   12.247225542   12.247241339    0.220294630
    2.666064128   12.658359629   12.658374718    0.230137056
    2.686102204   13.044545610   13.044559689    0.240507083
    2.706140281   13.410543735   13.410556593    0.251475237
    2.726178357   13.756014861   13.756026365    0.263185510
    2.746216433   14.075472941   14.075483023    0.275843989
    2.766254509   14.357889795   14.357898422    0.289701036
    2.786292585   14.587179541   14.587186681    0.305038815
    2.806330661   14.744286797   14.744292383    0.322165834
    2.826368737   14.810258914   14.810262822    0.341411947
    2.846406814   14.769229725   14.769231780    0.363114304
    2.866444890   14.610747513   14.610747527    0.387585360
    2.886482966   14.331761404   14.331759250    0.415056193
    2.906521042   13.938670227   13.938665931    0.445597461
    2.926559118   13.448275753   13.448269527    0.479044428
    2.946597194   12.885778338   12.885770545    0.514979719
    2.966635271   12.280147627   12.280138702    0.552818386
    2.986673347   11.659327618   11.659317995    0.591971466
    3.006711423   11.047105690   11.047095756    0.631984508
    3.026749499   10.461649315   10.461639372    0.672552326
    3.046787575    9.915134735    9.915124980    0.713425756
    3.066825651    9.414410353    9.414400891    0.754323751
    3.086863727    8.962566178    8.962557050    0.794915271
    3.106901804    8.560710595    8.560701812    0.834844537
    3.126939880    8.209343045    8.209334618    0.873794009
    3.146977956    7.909133557    7.909125517    0.911608154
    3.167016032    7.660901186    7.660893593    0.948413483
    3.187054108    7.464539258    7.464532184    0.984596581
    3.207092184    7.317246138    7.317239646    1.020601118
    3.227130261    7.212387184    7.212381315    1.056700208
    3.247168337    7.140485414    7.140480196    1.092961523
    3.267206413    7.092378033    7.092373505    1.129428779
    3.287244489    7.062568997    7.062565222    1.166290502
    3.307282565    7.050372702    7.050369752    1.203823627
    3.327320641    7.058055367    7.058053284    1.242160660
    3.347358717    7.087349989    7.087348736    1.281104352
    3.367396794    7.136718008    7.136717439    1.320157977
    3.387434870    7.200970584    7.200970451    1.358757818
    3.407472946    7.273059441    7.273059440    1.396533684
    3.427511022    7.346489516    7.346489360    1.433384450
    3.447549098    7.416866357    7.416865830    1.469299603
    3.467587174    7.481941676    7.481940657    1.504127178
    3.487625251    7.540350452    7.540348907    1.537561539
    3.507663327    7.590115003    7.590112963    1.569342224
    3.527701403    7.628276838    7.628274388    1.599409766
    3.547739479    7.651919283    7.651916557    1.627852856
    3.567777555    7.659420251    7.659417426    1.654688316
    3.587815631    7.650629565    7.650626836    1.679627657
    3.607853707    7.625946877    7.625944412    1.702004734
    3.627891784    7.585648431    7.585646338    1.720937039
    3.647929860    7.530623543    7.530621862    1.735593220
    3.667967936    7.463784241    7.463782975    1.745374217
    3.688006012    7.390141412    7.390140544    1.749970623
    3.708044088    7.314975763    7.314975268    1.749404560
    3.728082164    7.241768295    7.241768137    1.744123852
    3.748120240    7.171568564    7.171568699    1.735068273
    3.768158317    7.103829776    7.103830161    1.723557921
    3.788196393    7.037604048    7.037604654    1.710934882
    3.808234469    6.972157967    6.972158780    1.698082507
    3.828272545    6.907051910    6.907052932    1.685148356
    3.848310621    6.842334824    6.842336074    1.671770678
    3.868348697    6.779040812    6.779042319    1.657730195
    3.888386774    6.719375761    6.719377550    1.643513396
    3.908424850    6.665940306    6.665942373    1.630273526
    3.928462926    6.620211995    6.620214299    1.619211773
    3.948501002    6.581554692    6.581557154    1.610907791
    3.968539078    6.548079909    6.548082449    1.605113259
    3.988577154    6.519178344    6.519180911    1.601151402
    4.008615230    6.497686244    6.497688837    1.598643011
    4.028653307    6.489510552    6.489513213    1.598001433
    4.048691383    6.500497570    6.500500351    1.600291228
    4.068729459    6.532577766    6.532580695    1.606602379
    4.088767535    6.581802308    6.581805378    1.617490838
    4.108805611    6.639663136    6.639666315    1.632891819
    4.128843687    6.697020709    6.697023974    1.652470760
    4.148881764    6.748139385    6.748142741    1.676100283
    4.168919840    6.792282418    6.792285886    1.704186660
    4.188957916    6.832301265    6.832304862    1.737694724
    4.208995992    6.871660340    6.871664068    1.777834919
    4.229034068    6.911886183    6.911890028    1.825594791
    4.249072144    6.951738054    6.951741993    1.881466805
    4.269110220    6.988064631    6.988068631    1.945586319
    4.289148297    7.017176440    7.017180465    2.018162972
    4.309186373    7.035544278    7.035548288    2.099866731
    4.329224449    7.039637497    7.039641454    2.191889352
    4.349262525    7.025711005    7.025714873    2.295683344
    4.369300601    6.990476579    6.990480336    2.412603777
    4.389338677    6.932736291    6.932739930    2.543657585
    4.409376754    6.854936396    6.854939916    2.689390986
    4.429414830    6.763235286    6.763238691    2.849789848
    4.449452906    6.665567236    6.665570541    3.024033335
    4.469490982    6.568785895    6.568789133    3.210057990
    4.489529058    6.476693158    6.476696374    3.404150534
    4.509567134    6.389896831    6.389900058    3.601038121
    4.529605210    6.307080881    6.307084126    3.794768740
    4.549643287    6.226533661    6.226536907    3.979990995
    4.569681363    6.147055608    6.147058845    4.152818039
    4.589719439    6.068265638    6.068268879    4.310885923
    4.609757515    5.990808287    5.990811577    4.452971972
    4.629795591    5.916580400    5.916583791    4.578839019
    4.649833667    5.848520699    5.848524224    4.689625745
    4.669871743    5.789520546    5.789524198    4.788380230
    4.689909820    5.740660225    5.740663957    4.879934688
    4.709947896    5.699832700    5.699836448    4.969867461
    4.729985972    5.662167568    5.662171285    5.063177551
    4.750024048    5.622662496    5.622666176    5.163438975
    4.770062124    5.579391139    5.579394821    5.272681953
    4.790100200    5.534725892    5.534729637    5.391754130
    4.810138277    5.493677137    5.493681003    5.520817772
    4.830176353    5.460954728    5.460958742    5.659852996
    4.850214429    5.438863232    5.438867380    5.809132454
    4.870252505    5.426704231    5.426708473    5.969442682
    4.890290581    5.421297001    5.421301286    6.141738400
    4.910328657    5.418309562    5.418313845    6.326316321
    4.930366733    5.414090499    5.414094758    6.522046432
    4.950404810    5.407217322    5.407221573    6.725988273
    4.970442886    5.398908233    5.398912531    6.933375124
    4.990480962    5.392073360    5.392077772    7.138002050
    5.010519038    5.389511771    5.389516341    7.333006663
    5.030557114    5.392110516    5.392115234    7.512000999
    5.050595190    5.397927265    5.397932070    7.670637630
    5.070633267    5.402717408    5.402722210    7.808228998
    5.090671343    5.401602332    5.401607034    7.928352611
    5.110709419    5.390725555    5.390730080    8.037870390
    5.130747495    5.367834559    5.367838856    8.145146227
    5.150785571    5.331729472    5.331733517    8.258639866
    5.170823647    5.281453237    5.281457024    8.386164521
    5.190861723    5.216004122    5.216007650    8.534390425
    5.210899800    5.134569180    5.134572447    8.708288935
    5.230937876    5.037098726    5.037101725    8.910384121
    5.250975952    4.925268037    4.925270765    9.139775690
    5.271014028    4.803386928    4.803389397    9.391423520
    5.291052104    4.678353122    4.678355372    9.656506317
    5.311090180    4.558352954    4.558355051    9.923823481
    5.331128257    4.450850369    4.450852388   10.181049736
    5.351166333    4.360613941    4.360615945   10.414988445
    5.371204409    4.288551778    4.288553800   10.611699138
    5.391242485    4.232070471    4.232072505   10.758142076
    5.411280561    4.186919886    4.186921901   10.845523571
    5.431318637    4.149458908    4.149460865   10.872425464
    5.451356713    4.118144588    4.118146469   10.845259419
    5.471394790    4.093733882    4.093735693   10.775249082
    5.491432866    4.078319977    4.078321728   10.673576764
    5.511470942    4.073723270    4.073724951   10.547415354
    5.531509018    4.080074444    4.080076020   10.398723849
    5.551547094    4.095381108    4.095382531   10.225939521
    5.571585170    4.116343437    4.116344680   10.027195398
    5.591623246    4.139967608    4.139968670    9.803030949
    5.611661323    4.164912629    4.164913531    9.557156442
    5.631699399    4.191535315    4.191536079    9.295305576
    5.651737475    4.220601476    4.220602128    9.023359840
    5.671775551    4.251717036    4.251717605    8.746200970
    5.691813627    4.282548369    4.282548896    8.467976338
    5.711851703    4.309169492    4.309170024    8.192951182
    5.731889780    4.327325522    4.327326102    7.925485850
    5.751927856    4.334088005    4.334088661    7.668805552
    5.771965932    4.329152930    4.329153677    7.423739072
    5.792004008    4.315128952    4.315129795    7.188719771
    5.812042084    4.296627128    4.296628062    6.961113469
    5.832080160    4.278560798    4.278561802    6.738861711
    5.852118236    4.264497701    4.264498742    6.521494583
    5.872156313    4.255835350    4.255836383    6.310299869
    5.892194389    4.251983889    4.251984864    6.107849193
    5.912232465    4.251132033    4.251132898    5.917084591
    5.932270541    4.250986461    4.250987166    5.740249991
    5.952308617    4.249191155    4.249191654    5.578037284
    5.972346693    4.243607686    4.243607945    5.429191738
    5.992384770    4.232741376    4.232741383    5.290739528
    6.012422846    4.216259472    4.216259241    5.158971647
    6.032460922    4.195194039    4.195193604    5.030983597
    6.052498998    4.171476991    4.171476393    4.905982647
    6.072537074    4.147054461    4.147053737    4.785387470
    6.092575150    4.123365954    4.123365142    4.671540889
    6.112613226    4.101562627    4.101561768    4.566026786
    6.132651303    4.082896669    4.082895808    4.468741293
    6.152689379    4.068524280    4.068523461    4.378019590
    6.172727455    4.058714273    4.058713537    4.291446167
    6.192765531    4.052108132    4.052107501    4.206804394
    6.212803607    4.045525763    4.045525237    4.122659681
    6.232841683    4.034300878    4.034300434    4.038392298
    6.252879760    4.013013278    4.013012881    3.953927797
    6.272917836    3.976653231    3.976652837    3.869541307
    6.292955912    3.922063988    3.922063549    3.785930359
    6.312993988    3.849001309    3.849000779    3.704378431
    6.333032064    3.760103690    3.760103038    3.626535635
    6.353070140    3.659790587    3.659789799    3.553615645
    6.373108216    3.552823518    3.552822596    3.485529530
    6.393146293    3.443276693    3.443275647    3.420734481
    6.413184369    3.334219581    3.334218425    3.357024626
    6.433222445    3.227965461    3.227964210    3.292832811
    6.453260521    3.126456682    3.126455348    3.228316742
    6.473298597    3.031372125    3.031370718    3.165568753
    6.493336673    2.943905657    2.943904185    3.107858543
    6.513374749    2.864593166    2.864591633    3.058522263
    6.533412826    2.793543241    2.793541653    3.020099774
