# energy grid [eV]     epsi_x  epsi_y  epsi_z
#
    0.001000000   55.213057794    7.953298323    2.682669716
    0.021038076   44.644725921    6.968936237    0.579030367
    0.041076152   40.106638562    6.574678199    0.473844781
    0.061114228   35.673488051    6.086470845    0.431580345
    0.081152305   31.934377379    5.662498809    0.409132628
    0.101190381   28.863626629    5.301655481    0.397435467
    0.121228457   26.340145434    4.989210076    0.392812286
    0.141266533   24.246406060    4.712951702    0.392330940
    0.161304609   22.481848369    4.463603769    0.393046775
    0.181342685   20.958059075    4.232679601    0.392205507
    0.201380762   19.593400286    4.010881683    0.387606369
    0.221418838   18.314923852    3.788894858    0.377912056
    0.241456914   17.068614732    3.560443737    0.362871859
    0.261494990   15.830667857    3.325068438    0.343354199
    0.281533066   14.609501818    3.087979289    0.321053253
    0.301571142   13.436014295    2.857156749    0.297937469
    0.321609218   12.348910283    2.640114994    0.275729106
    0.341647295   11.382153238    2.441971393    0.255645982
    0.361685371   10.557008778    2.264765253    0.238392799
    0.381723447    9.879136451    2.107739654    0.224253745
    0.401761523    9.340285178    1.968662702    0.213175657
    0.421799599    8.921920847    1.845719780    0.204813725
    0.441837675    8.597486282    1.738733591    0.198567638
    0.461875752    8.333483520    1.648952793    0.193667888
    0.481913828    8.093165002    1.577988748    0.189352694
    0.501951904    7.844462346    1.526972709    0.185086083
    0.521989980    7.567809610    1.496372708    0.180687187
    0.542028056    7.258142922    1.486242495    0.176282196
    0.562066132    6.920816626    1.496550683    0.172128852
    0.582104208    6.565999486    1.527404004    0.168447071
    0.602142285    6.205393742    1.579118599    0.165341059
    0.622180361    5.851764280    1.652145791    0.162803192
    0.642218437    5.519321645    1.746876720    0.160756053
    0.662256513    5.222807378    1.863368663    0.159109722
    0.682294589    4.974920505    2.001040608    0.157818284
    0.702332665    4.783510262    2.158367871    0.156906190
    0.722370741    4.650066154    2.332642731    0.156448443
    0.742408818    4.569942276    2.519999150    0.156525708
    0.762446894    4.533888141    2.715890166    0.157188910
    0.782484970    4.530264717    2.915861849    0.158451404
    0.802523046    4.547383284    3.116163580    0.160307444
    0.822561122    4.575435591    3.313913907    0.162763608
    0.842599198    4.607542268    3.506964915    0.165862214
    0.862637275    4.639750948    3.693803581    0.169678704
    0.882675351    4.670362628    3.873653236    0.174293893
    0.902713427    4.699230969    4.046530537    0.179760888
    0.922751503    4.727340000    4.212882188    0.186086381
    0.942789579    4.756528615    4.372942636    0.193231052
    0.962827655    4.789159992    4.526405997    0.201119238
    0.982865731    4.827617740    4.672580945    0.209646179
    1.002903808    4.873600439    4.810558843    0.218684746
    1.022941884    4.927385860    4.939032853    0.228102842
    1.042979960    4.987381434    5.055952015    0.237790071
    1.063018036    5.050181813    5.158470490    0.247673476
    1.083056112    5.111152537    5.243506394    0.257702423
    1.103094188    5.165392791    5.308808077    0.267803472
    1.123132265    5.208782338    5.353989940    0.277831789
    1.143170341    5.238739672    5.380930948    0.287558995
    1.163208417    5.254436662    5.393364509    0.296723176
    1.183246493    5.256515686    5.395987035    0.305126032
    1.203284569    5.246639154    5.393527049    0.312723269
    1.223322645    5.227164912    5.390092922    0.319653355
    1.243360721    5.200884416    5.389032799    0.326192438
    1.263398798    5.170589480    5.393321710    0.332674284
    1.283436874    5.138540144    5.406050653    0.339428407
    1.303474950    5.106244679    5.430410053    0.346758629
    1.323513026    5.074773036    5.468966315    0.354948337
    1.343551102    5.045262391    5.522654853    0.364269441
    1.363589178    5.019055073    5.590163769    0.374980645
    1.383627255    4.997351080    5.668087724    0.387311705
    1.403665331    4.980794814    5.751705718    0.401441408
    1.423703407    4.969384059    5.835909132    0.417484217
    1.443741483    4.962640518    5.915863044    0.435494041
    1.463779559    4.959724992    5.987294585    0.455477653
    1.483817635    4.959319767    6.046566250    0.477405444
    1.503855711    4.959400173    6.090714189    0.501215362
    1.523893788    4.957197728    6.117506329    0.526808424
    1.543931864    4.949576993    6.125487371    0.554030425
    1.563969940    4.933772848    6.113974434    0.582640982
    1.584008016    4.908205320    6.083042531    0.612288794
    1.604046092    4.873062367    6.033605870    0.642523644
    1.624084168    4.830443371    5.967630262    0.672862948
    1.644122244    4.783989569    5.888394844    0.702891344
    1.664160321    4.738095551    5.800632972    0.732335982
    1.684198397    4.696974488    5.710279987    0.761066638
    1.704236473    4.663907132    5.623646782    0.789014534
    1.724274549    4.640892110    5.546300754    0.816053781
    1.744312625    4.628736673    5.482312239    0.841918240
    1.764350701    4.627457994    5.434236566    0.866208628
    1.784388778    4.636796623    5.403534676    0.888482289
    1.804426854    4.656723775    5.390884017    0.908362816
    1.824464930    4.687855545    5.396185040    0.925604553
    1.844503006    4.731563435    5.418495691    0.940096065
    1.864541082    4.789567162    5.456154337    0.951846878
    1.884579158    4.863054803    5.507033433    0.961009869
    1.904617234    4.951643632    5.568612867    0.967921778
    1.924655311    5.052608267    5.637750459    0.973077305
    1.944693387    5.160797579    5.710534625    0.976997258
    1.964731463    5.269486008    5.782780141    0.980070371
    1.984769539    5.371990312    5.851208467    0.982482895
    2.004807615    5.463431176    5.914636334    0.984263678
    2.024845691    5.541937347    5.974356256    0.985391540
    2.044883768    5.608928857    6.033430010    0.985906630
    2.064921844    5.668453565    6.095284391    0.985985175
    2.084959920    5.725768725    6.162370922    0.985939093
    2.104997996    5.785657717    6.235570005    0.986124507
    2.125036072    5.851167824    6.314515186    0.986808859
    2.145074148    5.923274278    6.398463404    0.988094836
    2.165112224    6.001482149    6.487133932    0.989950492
    2.185150301    6.084844129    6.581111593    0.992286914
    2.205188377    6.172716754    6.681722537    0.995000655
    2.225226453    6.264984510    6.790545800    0.997982548
    2.245264529    6.362008680    6.908889964    1.001138696
    2.265302605    6.464630228    7.037544135    1.004411669
    2.285340681    6.574238383    7.176885919    1.007751226
    2.305378758    6.692729065    7.327233564    1.011037712
    2.325416834    6.822283032    7.489247708    1.014018898
    2.345454910    6.965052371    7.664121391    1.016308188
    2.365492986    7.122946420    7.853359083    1.017447510
    2.385531062    7.297687048    8.058226946    1.017006246
    2.405569138    7.491063258    8.279209534    1.014674861
    2.425607214    7.705093252    8.515781506    1.010328710
    2.445645291    7.941850933    8.766505808    1.004070422
    2.465683367    8.202896732    9.029144481    0.996255288
    2.485721443    8.488423294    9.300499035    0.987462372
    2.505759519    8.796410656    9.576152432    0.978375803
    2.525797595    9.122175791    9.850630208    0.969613008
    2.545835671    9.458507424   10.118193155    0.961589975
    2.565873747    9.796225245   10.373758645    0.954482430
    2.585911824   10.124900049   10.613242329    0.948267939
    2.605949900   10.433721607   10.833301161    0.942792342
    2.625987976   10.712694361   11.031154413    0.937826573
    2.646026052   10.954117587   11.204919574    0.933124348
    2.666064128   11.153860938   11.354102516    0.928494588
    2.686102204   11.311772400   11.479563188    0.923871254
    2.706140281   11.430869278   11.582707995    0.919348345
    2.726178357   11.515579405   11.664282462    0.915167535
    2.746216433   11.569830721   11.723440583    0.911671452
    2.766254509   11.595814275   11.757589366    0.909236738
    2.786292585   11.593723847   11.762947351    0.908191648
    2.806330661   11.562231543   11.735316197    0.908736443
    2.826368737   11.499298743   11.670734073    0.910906880
    2.846406814   11.402934713   11.566123128    0.914609209
    2.866444890   11.271579545   11.420071378    0.919718243
    2.886482966   11.104116567   11.233526794    0.926198822
    2.906521042   10.899915091   11.009973534    0.934188228
    2.926559118   10.659268818   10.754903066    0.943979824
    2.946597194   10.384166108   10.474875249    0.955904798
    2.966635271   10.079014779   10.176675224    0.970185825
    2.986673347    9.750927221    9.866829297    0.986856976
    3.006711423    9.409290885    9.551435607    1.005788564
    3.026749499    9.064608218    9.236167708    1.026779967
    3.046787575    8.726991723    8.926307066    1.049651279
    3.066825651    8.404914966    8.626679921    1.074290962
    3.086863727    8.104580862    8.341460785    1.100662578
    3.106901804    7.829875784    8.073947752    1.128797492
    3.126939880    7.582748513    7.826515690    1.158790763
    3.146977956    7.363881408    7.600869077    1.190785959
    3.167016032    7.173460333    7.398457528    1.224926142
    3.187054108    7.011802591    7.220795959    1.261293284
    3.207092184    6.879688190    7.069587431    1.299889876
    3.227130261    6.778332248    6.946701758    1.340668198
    3.247168337    6.708988490    6.854074195    1.383551296
    3.267206413    6.672277583    6.793547083    1.428404098
    3.287244489    6.667423789    6.766576528    1.474971830
    3.307282565    6.691574169    6.773635630    1.522839479
    3.327320641    6.739395526    6.813312894    1.571470455
    3.347358717    6.803247080    6.881501160    1.620341225
    3.367396794    6.874166712    6.971250709    1.669098649
    3.387434870    6.943530525    7.073547369    1.717613067
    3.407472946    7.004799958    7.178758856    1.765870714
    3.427511022    7.054613465    7.278195346    1.813784849
    3.447549098    7.092772837    7.365283810    1.861063917
    3.467587174    7.121286346    7.436110296    1.907222574
    3.487625251    7.143080921    7.489326677    1.951727565
    3.507663327    7.160937861    7.525579042    1.994194009
    3.527701403    7.176859571    7.546694005    2.034520047
    3.547739479    7.191808348    7.554847602    2.072880335
    3.567777555    7.205667405    7.551905561    2.109575941
    3.587815631    7.217305297    7.539067965    2.144823932
    3.607853707    7.224741226    7.516853321    2.178606330
    3.627891784    7.225515870    7.485396440    2.210652452
    3.647929860    7.217321992    7.444950914    2.240539231
    3.667967936    7.198719956    7.396308383    2.267830135
    3.688006012    7.169568258    7.340813879    2.292166494
    3.708044088    7.130937807    7.279967290    2.313265493
    3.728082164    7.084663741    7.214962902    2.330848091
    3.748120240    7.032843481    7.146512544    2.344584575
    3.768158317    6.977446695    7.075014140    2.354157566
    3.788196393    6.920104422    7.000922065    2.359471967
    3.808234469    6.862104654    6.925103293    2.360905810
    3.828272545    6.804501106    6.848951344    2.359403953
    3.848310621    6.748179823    6.774147222    2.356309565
    3.868348697    6.693837258    6.702206491    2.353053268
    3.888386774    6.641972313    6.634141161    2.350920223
    3.908424850    6.593035961    6.570506814    2.350992590
    3.928462926    6.547754023    6.511805659    2.354196699
    3.948501002    6.507416755    6.458914092    2.361343959
    3.968539078    6.473854668    6.413177699    2.373129352
    3.988577154    6.449022038    6.376076138    2.390121045
    4.008615230    6.434418818    6.348663819    2.412764731
    4.028653307    6.430697189    6.331105328    2.441381691
    4.048691383    6.437600121    6.322537454    2.476135965
    4.068729459    6.454106264    6.321327391    2.516979327
    4.088767535    6.478580273    6.325570201    2.563610694
    4.108805611    6.508813485    6.333490303    2.615490051
    4.128843687    6.541998941    6.343557827    2.671920864
    4.148881764    6.574865903    6.354470794    2.732180066
    4.168919840    6.604153708    6.365209532    2.795653085
    4.188957916    6.627243419    6.375107969    2.861924983
    4.208995992    6.642506825    6.383762137    2.930807351
    4.229034068    6.649164110    6.390809852    3.002323352
    4.249072144    6.646920617    6.395822277    3.076661825
    4.269110220    6.635796136    6.398410551    3.154075096
    4.289148297    6.616244853    6.398382198    3.234737396
    4.309186373    6.589330172    6.395756488    3.318668113
    4.329224449    6.556703083    6.390624194    3.405799948
    4.349262525    6.520326347    6.382972523    3.496133089
    4.369300601    6.482036403    6.372581919    3.589837436
    4.389338677    6.443091463    6.359007331    3.687222306
    4.409376754    6.403884931    6.341618750    3.788591098
    4.429414830    6.363954760    6.319669513    3.894037464
    4.449452906    6.322265299    6.292346844    4.003215642
    4.469490982    6.277632330    6.258835992    4.115113964
    4.489529058    6.229150676    6.218508042    4.227940405
    4.509567134    6.176486188    6.171236472    4.339297388
    4.529605210    6.119947018    6.117674122    4.446733549
    4.549643287    6.060373245    6.059307282    4.548532460
    4.569681363    5.998960241    5.998236591    4.644389721
    4.589719439    5.937074293    5.936764823    4.735614823
    4.609757515    5.876023829    5.876920470    4.824753887
    4.629795591    5.816793042    5.820040800    4.914877459
    4.649833667    5.759870747    5.766529369    5.008893455
    4.669871743    5.705283892    5.715869627    5.109081918
    4.689909820    5.652792773    5.666897681    5.216841883
    4.709947896    5.602139100    5.618251404    5.332576576
    4.729985972    5.553267931    5.568846222    5.455711376
    4.750024048    5.506440644    5.518205397    5.584910718
    4.770062124    5.462158965    5.466531839    5.718511666
    4.790100200    5.420934701    5.414518504    5.855022837
    4.810138277    5.383082906    5.362995323    5.993424876
    4.830176353    5.348689390    5.312586863    6.133152772
    4.850214429    5.317699980    5.263559973    6.273922243
    4.870252505    5.289961356    5.215925195    6.415624613
    4.890290581    5.265159152    5.169695880    6.558328320
    4.910328657    5.242753788    5.125129230    6.702285133
    4.930366733    5.222011336    5.082803929    6.847860214
    4.950404810    5.202113589    5.043482757    6.995373307
    4.970442886    5.182244670    5.007808116    7.144886018
    4.990480962    5.161584813    4.975955156    7.296024739
    5.010519038    5.139262888    4.947406326    7.447944546
    5.030557114    5.114365157    4.920980572    7.599443076
    5.050595190    5.086004211    4.895127798    7.749125081
    5.070633267    5.053377855    4.868342625    7.895544440
    5.090671343    5.015816431    4.839483074    8.037352111
    5.110709419    4.972875997    4.807853657    8.173471866
    5.130747495    4.924459442    4.773069840    8.303189973
    5.150785571    4.870881108    4.734840648    8.426006746
    5.170823647    4.812818848    4.692804851    8.541276119
    5.190861723    4.751153162    4.646493169    8.647822892
    5.210899800    4.686765831    4.595463952    8.743695675
    5.230937876    4.620425338    4.539612341    8.826136765
    5.250975952    4.552829602    4.479507814    8.891821598
    5.271014028    4.484755005    4.416526939    8.937339431
    5.291052104    4.417204725    4.352676660    8.959792302
    5.311090180    4.351457189    4.290225298    8.957372018
    5.331128257    4.288945631    4.231352968    8.929767095
    5.351166333    4.231000805    4.177945015    8.878270357
    5.371204409    4.178629734    4.131506656    8.805591552
    5.391242485    4.132509977    4.093115091    8.715498691
    5.411280561    4.093184932    4.063354328    8.612379793
    5.431318637    4.061248301    4.042249168    8.500738679
    5.451356713    4.037336845    4.029280351    8.384638661
    5.471394790    4.021960815    4.023542583    8.267171548
    5.491432866    4.015332962    4.024000283    8.150109515
    5.511470942    4.017288513    4.029714998    8.033904309
    5.531509018    4.027254387    4.039930790    7.918051249
    5.551547094    4.044204635    4.053990834    7.801619250
    5.571585170    4.066625753    4.071173981    7.683634049
    5.591623246    4.092572726    4.090589839    7.563125122
    5.611661323    4.119864346    4.111199689    7.438967724
    5.631699399    4.146384897    4.131928411    7.309850297
    5.651737475    4.170385060    4.151791543    7.174536907
    5.671775551    4.190669352    4.169977055    7.032291813
    5.691813627    4.206622751    4.185866263    6.883221477
    5.711851703    4.218084150    4.199020177    6.728373391
    5.731889780    4.225106341    4.209163405    6.569558199
    5.751927856    4.227703288    4.216173350    6.408992029
    5.771965932    4.225727075    4.220068051    6.248949059
    5.792004008    4.218958827    4.220999446    6.091573764
    5.812042084    4.207368086    4.219265917    5.938867331
    5.832080160    4.191383025    4.215326805    5.792740860
    5.852118236    4.171995142    4.209762985    5.654975477
    5.872156313    4.150625142    4.203150997    5.527017486
    5.892194389    4.128820423    4.195904365    5.409712986
    5.912232465    4.107927001    4.188192363    5.303145903
    5.932270541    4.088870131    4.179998871    5.206645855
    5.952308617    4.072109880    4.171255888    5.118922808
    5.972346693    4.057717440    4.161901075    5.038245731
    5.992384770    4.045426724    4.151775056    4.962615606
    6.012422846    4.034571093    4.140436235    4.889945579
    6.032460922    4.023979023    4.127053650    4.818273231
    6.052498998    4.011975599    4.110457583    4.745986093
    6.072537074    3.996558585    4.089306499    4.671986046
    6.092575150    3.975724341    4.062313788    4.595706778
    6.112613226    3.947856732    4.028509325    4.516994571
    6.132651303    3.912029425    3.987472481    4.435984211
    6.152689379    3.868085346    3.939417754    4.353071503
    6.172727455    3.816501714    3.885060090    4.268932230
    6.192765531    3.758178059    3.825327519    4.184481378
    6.212803607    3.694257037    3.761092849    4.100753271
    6.232841683    3.625984392    3.693057667    4.018764188
    6.252879760    3.554576449    3.621791774    3.939423900
    6.272917836    3.481099751    3.547847021    3.863510004
    6.292955912    3.406398823    3.471864799    3.791651193
    6.312993988    3.331097413    3.394617098    3.724277021
    6.333032064    3.255675013    3.316943507    3.661589438
    6.353070140    3.180593035    3.239612036    3.603638622
    6.373108216    3.106397580    3.163206093    3.550466663
    6.393146293    3.033711395    3.088122417    3.502179107
    6.413184369    2.963116131    3.014659257    3.458869917
    6.433222445    2.895035064    2.943097208    3.420468561
    6.453260521    2.829710492    2.873701576    3.386634330
    6.473298597    2.767261126    2.806669660    3.356774584
    6.493336673    2.707748382    2.742109325    3.330183966
    6.513374749    2.651205257    2.680095765    3.306247378
    6.533412826    2.597620621    2.620749339    3.284629810
